##NAMES=Abhurite
##RRUFFID=R060227
##IDEAL CHEMISTRY=Sn^2+^_21_O_6_(OH)_14_Cl_16_
##LOCALITY=Wreck of the SS Cheerful, 14 miles NNW of St. Ives, Cornwall, England
##OWNER=RRUFF
##SOURCE=Michael Scott
##DESCRIPTION=Aggregate of tan colored platy crystals
##STATUS=The identification of this mineral is confirmed by single-crystal X-ray diffraction and chemical analysis
##URL=https://www.rruff.net/odr/rruff_sample/R060227
##MEASURED CHEMISTRY=Sn^2+^_21.00_Cl_16.00_(OH)_14.00_O_6_ ; (OH) estimated by difference
##DIFFRACTION SAMPLE DESCRIPTION=Single crystal, powder profile is calculated
##CELL PARAMETERS=a: 9.981 b: 9.981 c: 43.84 alpha: 90 beta: 90 gamma: 120 volume: 3782 crystal system: hexagonal
##FILETYPE=Raman RAW
##RAMAN WAVELENGTH=780

82.56664, 4436.746
84.49510, 4926.031
86.42357, 5430.210
88.35204, 5954.323
90.28050, 6442.952
92.20897, 6482.648
94.13744, 6454.751
96.06590, 6396.225
97.99437, 6312.889
99.92284, 6224.113
101.8513, 6116.985
103.7798, 6021.523
105.7082, 5980.192
107.6367, 6000.548
109.5652, 6021.854
111.4936, 6090.183
113.4221, 6094.913
115.3506, 5963.271
117.2790, 5737.839
119.2075, 5472.276
121.1360, 5134.625
123.0644, 4846.397
124.9929, 4609.178
126.9214, 4415.206
128.8498, 4272.157
130.7783, 4165.723
132.7068, 4078.235
134.6352, 4010.789
136.5637, 3959.044
138.4922, 3941.090
140.4206, 3915.267
142.3491, 3878.884
144.2776, 3817.051
146.2060, 3704.475
148.1345, 3528.479
150.0630, 3339.069
151.9914, 3112.436
153.9199, 2906.529
155.8484, 2729.874
157.7768, 2594.439
159.7053, 2516.482
161.6338, 2500.133
163.5622, 2524.180
165.4907, 2597.319
167.4192, 2688.197
169.3476, 2806.743
171.2761, 2923.057
173.2046, 3014.589
175.1330, 3081.188
177.0615, 3122.875
178.9900, 3133.371
180.9184, 3140.025
182.8469, 3133.696
184.7754, 3143.831
186.7038, 3182.852
188.6323, 3252.123
190.5608, 3361.305
192.4892, 3511.113
194.4177, 3694.352
196.3462, 3934.063
198.2746, 4172.090
200.2031, 4423.632
202.1316, 4640.208
204.0600, 4733.723
205.9885, 4699.342
207.9170, 4533.556
209.8454, 4194.202
211.7739, 3808.305
213.7024, 3381.616
215.6308, 2969.448
217.5593, 2621.470
219.4878, 2341.586
221.4162, 2125.743
223.3447, 1981.167
225.2732, 1868.987
227.2016, 1788.314
229.1301, 1727.719
231.0586, 1685.290
232.9870, 1658.723
234.9155, 1641.750
236.8440, 1633.407
238.7724, 1639.444
240.7009, 1663.997
242.6294, 1698.675
244.5578, 1746.248
246.4863, 1797.298
248.4148, 1847.746
250.3432, 1893.577
252.2717, 1916.929
254.2002, 1921.038
256.1286, 1886.146
258.0571, 1793.142
259.9856, 1676.792
261.9140, 1542.548
263.8425, 1400.329
265.7710, 1267.188
267.6994, 1142.857
269.6279, 1033.176
271.5564, 940.5013
273.4848, 861.4757
275.4133, 797.5389
277.3418, 744.0057
279.2702, 698.3132
281.1987, 659.9459
283.1272, 627.6510
285.0556, 602.0024
286.9841, 579.3793
288.9126, 559.1016
290.8410, 541.8822
292.7695, 527.9145
294.6980, 517.1835
296.6264, 510.0738
298.5549, 506.1609
300.4834, 504.2086
302.4118, 504.6130
304.3403, 505.7392
306.2688, 506.7180
308.1972, 509.1621
310.1257, 513.7097
312.0542, 520.0956
313.9826, 527.9779
315.9111, 537.3021
317.8396, 547.5614
319.7680, 558.3636
321.6965, 570.9405
323.6250, 586.3630
325.5534, 602.4175
327.4819, 618.5301
329.4103, 634.4479
331.3388, 649.9730
333.2673, 665.1707
335.1957, 678.5638
337.1242, 689.5670
339.0527, 699.5469
340.9811, 707.7797
342.9096, 715.8162
344.8381, 724.4503
346.7665, 733.5691
348.6950, 743.2510
350.6235, 753.4843
352.5519, 762.5460
354.4804, 771.5454
356.4089, 777.2977
358.3373, 780.1438
360.2658, 778.6265
362.1943, 771.6571
364.1227, 759.9086
366.0512, 743.1685
367.9797, 721.6194
369.9081, 698.5002
371.8366, 673.7518
373.7651, 647.3948
375.6935, 617.8841
377.6220, 589.5076
379.5505, 564.4288
381.4789, 541.3083
383.4074, 518.8533
385.3359, 498.9497
387.2643, 480.6208
389.1928, 463.3782
391.1213, 448.8956
393.0497, 434.9320
394.9782, 422.6262
396.9067, 413.2122
398.8351, 404.7964
400.7636, 395.9818
402.6921, 387.5601
404.6205, 381.2953
406.5490, 377.2783
408.4775, 373.9517
410.4059, 371.2830
412.3344, 369.2660
414.2629, 368.2368
416.1913, 367.4076
418.1198, 366.0869
420.0483, 365.0133
421.9767, 365.4676
423.9052, 367.0565
425.8337, 367.5342
427.7621, 366.8755
429.6906, 366.6468
431.6191, 366.8397
433.5475, 368.0860
435.4760, 371.1733
437.4045, 374.6204
439.3329, 377.8073
441.2614, 380.6111
443.1899, 382.7778
445.1183, 384.4223
447.0468, 385.7527
448.9753, 386.7626
450.9037, 387.3221
452.8322, 387.5846
454.7607, 387.1653
456.6891, 385.5257
458.6176, 383.7099
460.5461, 382.3991
462.4745, 381.4998
464.4030, 381.3021
466.3315, 381.3957
468.2599, 379.2841
470.1884, 374.5374
472.1169, 368.4166
474.0453, 360.9741
475.9738, 352.2937
477.9023, 342.5162
479.8307, 331.3587
481.7592, 317.7688
483.6877, 303.1436
485.6161, 289.3817
487.5446, 276.5090
489.4731, 264.6089
491.4016, 253.8044
493.3300, 243.7550
495.2585, 233.8492
497.1870, 225.4358
499.1154, 219.1910
501.0439, 214.2484
502.9724, 210.4307
504.9008, 207.3229
506.8293, 204.4576
508.7578, 201.8192
510.6862, 199.3291
512.6147, 196.7460
514.5432, 195.0338
516.4716, 194.8672
518.4001, 194.3267
520.3286, 192.9429
522.2570, 191.3462
524.1855, 189.7721
526.1140, 188.1800
528.0424, 186.7308
529.9709, 185.2829
531.8994, 182.9110
533.8278, 179.2789
535.7563, 178.5888
537.6848, 182.5720
539.6132, 184.1698
541.5417, 182.1159
543.4702, 178.8162
545.3986, 174.2657
547.3271, 169.9600
549.2556, 166.8658
551.1840, 164.3888
553.1125, 161.9347
555.0410, 159.5132
556.9694, 156.9398
558.8979, 154.1370
560.8264, 151.5703
562.7548, 149.2156
564.6833, 147.2775
566.6118, 146.0263
568.5402, 144.6366
570.4687, 142.5709
572.3972, 140.5456
574.3256, 139.0594
576.2541, 137.6841
578.1826, 135.7211
580.1110, 133.4092
582.0395, 131.7187
583.9680, 130.6307
585.8964, 129.8683
587.8249, 129.5359
589.7534, 128.6832
591.6818, 126.7508
593.6103, 125.0809
595.5388, 124.4387
597.4672, 123.8290
599.3957, 122.6673
601.3242, 121.3184
603.2526, 120.0626
605.1811, 118.9874
607.1096, 118.4075
609.0380, 118.1834
610.9665, 117.6234
612.8950, 116.6771
614.8234, 115.5903
616.7519, 114.2212
618.6804, 113.2432
620.6088, 113.0187
622.5373, 112.8962
624.4658, 112.9484
626.3942, 112.7680
628.3227, 111.7978
630.2512, 110.6439
632.1796, 110.1067
634.1081, 109.8882
636.0366, 109.4718
637.9650, 108.8995
639.8935, 108.3441
641.8220, 107.7945
643.7504, 107.3172
645.6789, 107.1272
647.6074, 106.6006
649.5358, 105.2043
651.4643, 104.1719
653.3928, 104.3278
655.3212, 104.3878
657.2497, 103.2719
659.1782, 101.9819
661.1066, 101.6885
663.0351, 101.8414
664.9636, 101.5122
666.8920, 100.7535
668.8205, 99.93532
670.7490, 99.04308
672.6774, 98.18752
674.6059, 97.20781
676.5344, 96.61671
678.4628, 96.77329
680.3913, 96.66235
682.3198, 95.90734
684.2482, 95.14702
686.1767, 94.61237
688.1052, 94.21690
690.0336, 94.00053
691.9621, 93.82457
693.8906, 93.55370
695.8190, 93.21101
697.7475, 92.79318
699.6759, 92.30933
701.6044, 91.94407
703.5328, 91.73653
705.4613, 91.47707
707.3898, 91.15308
709.3182, 90.82721
711.2467, 90.52793
713.1752, 90.08946
715.1036, 89.31400
717.0321, 88.80571
718.9606, 89.09897
720.8890, 89.24357
722.8175, 88.57320
724.7460, 87.76476
726.6744, 87.28629
728.6029, 86.97714
730.5314, 86.64793
732.4598, 86.34618
734.3883, 86.22828
736.3168, 86.23625
738.2452, 85.93473
740.1737, 85.75826
742.1022, 85.52171
744.0306, 85.09706
745.9591, 84.92091
747.8876, 84.34895
749.8160, 83.95916
751.7445, 83.97858
753.6730, 83.98099
755.6014, 83.82555
757.5299, 83.62183
759.4584, 83.39242
761.3868, 83.15767
763.3153, 82.76329
765.2438, 82.55569
767.1722, 83.15077
769.1007, 83.87759
771.0292, 83.68677
772.9576, 82.97281
774.8861, 82.54292
776.8146, 82.29277
778.7430, 82.01192
780.6715, 81.71953
782.6000, 81.41763
784.5284, 81.09911
786.4569, 80.93872
788.3854, 80.97395
790.3138, 81.08325
792.2423, 81.37567
794.1708, 81.50554
796.0992, 81.23605
798.0277, 81.07759
799.9562, 81.39941
801.8846, 81.46290
803.8131, 80.71421
805.7416, 80.00453
807.6700, 79.75964
809.5985, 79.79149
811.5270, 80.28040
813.4554, 80.67202
815.3839, 80.05511
817.3124, 79.20321
819.2408, 79.30888
821.1693, 79.94076
823.0978, 80.15273
825.0262, 80.01257
826.9547, 79.81868
828.8832, 79.57610
830.8116, 79.42683
832.7401, 79.36984
834.6686, 79.48091
836.5970, 79.90878
838.5255, 80.02654
840.4540, 79.69093
842.3824, 79.38893
844.3109, 79.10152
846.2394, 78.94791
848.1678, 79.07789
850.0963, 79.04386
852.0248, 78.74282
853.9532, 78.21900
855.8817, 77.29350
857.8102, 76.50874
859.7386, 76.06818
861.6671, 75.94630
863.5956, 76.55465
865.5240, 76.93083
867.4525, 76.16846
869.3810, 75.23697
871.3094, 74.89030
873.2379, 74.92508
875.1664, 75.35017
877.0948, 75.82681
879.0233, 75.69612
880.9518, 75.23826
882.8802, 75.06806
884.8087, 75.10494
886.7372, 75.08712
888.6656, 75.07011
890.5941, 75.33728
892.5226, 75.29956
894.4510, 75.87078
896.3795, 75.59931
898.3080, 75.72614
900.2365, 76.24432
902.1649, 76.32134
904.0934, 75.88956
906.0219, 75.83533
907.9503, 76.26637
909.8788, 76.93544
911.8073, 77.90571
913.7357, 78.50624
915.6642, 78.61150
917.5927, 78.37435
919.5211, 77.51667
921.4496, 77.16667
923.3781, 77.95879
925.3065, 78.45042
927.2350, 78.28192
929.1635, 77.94325
931.0919, 77.39754
933.0204, 76.90858
934.9489, 76.38837
936.8773, 76.19633
938.8058, 76.69321
940.7343, 77.20680
942.6627, 77.44402
944.5912, 77.60866
946.5197, 77.71848
948.4481, 77.91243
950.3766, 78.26067
952.3051, 78.74117
954.2335, 79.20151
956.1620, 79.97079
958.0905, 81.43427
960.0189, 83.16592
961.9474, 84.88367
963.8759, 86.57446
965.8043, 88.40260
967.7328, 90.05708
969.6613, 90.94167
971.5897, 91.69542
973.5182, 93.03331
975.4467, 94.72932
977.3751, 96.65991
979.3036, 98.59814
981.2321, 99.81725
983.1605, 101.0822
985.0890, 103.7533
987.0175, 107.3545
988.9459, 112.5775
990.8744, 117.0898
992.8029, 114.6740
994.7313, 108.5122
996.6598, 106.0025
998.5883, 105.5703
1000.517, 103.2265
1002.445, 99.63578
1004.374, 96.48225
1006.302, 93.68882
1008.231, 91.12108
1010.159, 88.72569
1012.088, 86.29633
1014.016, 83.87781
1015.944, 81.50253
1017.873, 79.29490
1019.801, 77.88377
1021.730, 77.04371
1023.658, 75.87985
1025.587, 74.49558
1027.515, 73.23559
1029.444, 72.14830
1031.372, 71.54745
1033.301, 70.73467
1035.229, 70.24453
1037.158, 69.87996
1039.086, 69.58968
1041.015, 69.66765
1042.943, 69.65813
1044.871, 69.49133
1046.800, 68.80897
1048.728, 67.80904
1050.657, 67.11889
1052.585, 66.69826
1054.514, 66.48736
1056.442, 66.38023
1058.371, 66.09839
1060.299, 65.66903
1062.228, 65.16962
1064.156, 64.58208
1066.085, 63.76992
1068.013, 62.86243
1069.942, 62.20734
1071.870, 61.71281
1073.798, 61.12138
1075.727, 60.53587
1077.655, 60.22977
1079.584, 60.06951
1081.512, 59.84993
1083.441, 59.54647
1085.369, 59.00014
1087.298, 58.38610
1089.226, 58.10770
1091.155, 57.92564
1093.083, 57.33175
1095.012, 56.67634
1096.940, 56.52642
1098.869, 56.61174
1100.797, 56.62291
1102.725, 56.56783
1104.654, 56.59495
1106.582, 56.42873
1108.511, 55.40458
1110.439, 54.42115
1112.368, 54.70036
1114.296, 55.09821
1116.225, 54.41923
1118.153, 53.54282
1120.082, 53.13151
1122.010, 52.94443
1123.939, 52.81893
1125.867, 52.76513
1127.796, 52.87972
1129.724, 52.96920
1131.652, 52.97877
1133.581, 52.83143
1135.509, 52.43183
1137.438, 51.96689
1139.366, 51.43784
1141.295, 51.03294
1143.223, 50.91373
1145.152, 50.71664
1147.080, 50.15854
1149.009, 49.94992
1150.937, 50.50037
1152.866, 50.69326
1154.794, 50.14831
1156.723, 49.85365
1158.651, 50.05001
1160.579, 50.07765
1162.508, 49.79102
1164.436, 49.69596
1166.365, 49.89608
1168.293, 49.99187
1170.222, 49.91856
1172.150, 49.71954
1174.079, 49.42727
1176.007, 49.27512
1177.936, 49.25958
1179.864, 49.26576
1181.793, 49.27659
1183.721, 49.30252
1185.650, 49.30312
1187.578, 48.98342
1189.506, 48.52668
1191.435, 48.60939
1193.363, 48.24981
1195.292, 48.52591
1197.220, 48.01397
1199.149, 48.10762
1201.077, 48.33679
1203.006, 48.06201
1204.934, 47.76551
1206.863, 48.02381
1208.791, 48.28830
1210.720, 48.11565
1212.648, 47.89289
1214.577, 47.85479
1216.505, 47.76599
1218.433, 47.33891
1220.362, 47.14153
1222.290, 47.66235
1224.219, 47.96616
1226.147, 47.82127
1228.076, 47.41894
1230.004, 46.46912
1231.933, 46.05109
1233.861, 46.49336
1235.790, 46.79873
1237.718, 46.94653
1239.647, 46.77787
1241.575, 46.29564
1243.504, 46.24376
1245.432, 46.55735
1247.360, 47.16491
1249.289, 47.85085
1251.217, 47.51744
1253.146, 46.67465
1255.074, 46.45676
1257.003, 46.54034
1258.931, 46.41883
1260.860, 46.30683
1262.788, 46.60228
1264.717, 46.79926
1266.645, 46.31878
1268.574, 45.97632
1270.502, 46.31298
1272.431, 46.56588
1274.359, 46.30860
1276.287, 46.16334
1278.216, 46.40929
1280.144, 46.57190
1282.073, 46.53456
1284.001, 46.50658
1285.930, 46.50901
1287.858, 46.45403
1289.787, 46.39288
1291.715, 46.69699
1293.644, 47.09754
1295.572, 46.56388
1297.501, 46.85260
1299.429, 45.99309
1301.358, 46.72364
1303.286, 46.81839
1305.214, 46.65598
1307.143, 46.68134
1309.071, 46.67843
1311.000, 46.42998
1312.928, 46.19367
1314.857, 46.09675
1316.785, 46.13291
1318.714, 46.41503
1320.642, 46.51589
1322.571, 46.35872
1324.499, 46.09214
1326.428, 45.65545
1328.356, 45.38749
1330.285, 45.35088
1332.213, 45.58590
1334.141, 45.91143
1336.070, 45.71424
1337.998, 45.32705
1339.927, 45.20301
1341.855, 45.18845
1343.784, 45.22120
1345.712, 45.31179
1347.641, 45.66690
1349.569, 45.77784
1351.498, 45.07620
1353.426, 44.57747
1355.355, 44.76925
1357.283, 45.00054
1359.212, 45.14410
1361.140, 45.17833
1363.068, 45.14128
1364.997, 44.94669
1366.925, 44.59259
1368.854, 44.34870
1370.782, 44.22577
1372.711, 44.24481
1374.639, 44.33080
1376.568, 44.37383
1378.496, 44.46097
1380.425, 44.73049
1382.353, 44.81588
1384.282, 44.51153
1386.210, 44.35918
1388.139, 44.55156
1390.067, 44.59590
1391.995, 44.35656
1393.924, 44.08931
1395.852, 43.87675
1397.781, 43.93858
1399.709, 44.18327
1401.638, 44.21903
1403.566, 44.07146
1405.495, 43.73315
1407.423, 43.50114
1409.352, 43.70541
1411.280, 44.00267
1413.209, 44.37157
1415.137, 44.50213
1417.066, 44.11718
1418.994, 43.90580
1420.922, 44.06756
1422.851, 44.05221
1424.779, 43.77810
1426.708, 43.46100
1428.636, 43.19196
1430.565, 43.36269
1432.493, 43.70603
1434.422, 43.56095
1436.350, 43.17909
1438.279, 42.96154
1440.207, 42.95861
1442.135, 43.05627
1444.064, 43.18515
1445.992, 43.45223
1447.921, 43.60845
1449.849, 43.53817
1451.778, 43.68791
1453.706, 43.43813
1455.635, 43.19073
1457.563, 42.96280
1459.492, 42.48166
1461.420, 42.34971
1463.349, 42.09087
1465.277, 41.99311
1467.206, 42.27411
1469.134, 42.40841
1471.063, 42.24465
1472.991, 42.08854
1474.919, 42.07988
1476.848, 42.45142
1478.776, 42.34264
1480.705, 42.77772
1482.633, 42.49866
1484.562, 42.65747
1486.490, 42.78427
1488.419, 42.28723
1490.347, 41.96825
1492.276, 42.48910
1494.204, 42.57108
1496.133, 41.72667
1498.061, 41.39315
1499.990, 41.77955
1501.918, 41.97925
1503.846, 41.81316
1505.775, 41.40022
1507.703, 41.23936
1509.632, 41.61283
1511.560, 41.76900
1513.489, 41.43051
1515.417, 41.16179
1517.346, 40.96336
1519.274, 40.94305
1521.203, 40.79443
1523.131, 40.96863
1525.060, 40.77168
1526.988, 40.85352
1528.917, 41.03165
1530.845, 41.37884
1532.773, 41.76379
1534.702, 41.74503
1536.630, 41.46655
1538.559, 41.14959
1540.487, 40.93549
1542.416, 40.72263
1544.344, 40.68652
1546.273, 40.82200
1548.201, 41.18899
1550.130, 41.64035
1552.058, 41.69190
1553.987, 41.41686
1555.915, 41.95152
1557.844, 40.68919
1559.772, 42.42794
1561.700, 43.18281
1563.629, 43.01262
1565.557, 41.98138
1567.486, 40.59776
1569.414, 40.10030
1571.343, 40.11528
1573.271, 40.42097
1575.200, 40.55157
1577.128, 40.49628
1579.057, 40.45517
1580.985, 40.44342
1582.914, 40.08274
1584.842, 40.21305
1586.771, 39.98409
1588.699, 39.63113
1590.627, 39.76703
1592.556, 39.96383
1594.484, 40.16893
1596.413, 40.05752
1598.341, 39.33314
1600.270, 39.07604
1602.198, 39.65904
1604.127, 39.97772
1606.055, 39.72572
1607.984, 39.25875
1609.912, 39.00447
1611.841, 38.84635
1613.769, 39.01287
1615.698, 39.70685
1617.626, 39.86628
1619.554, 39.43632
1621.483, 38.85027
1623.411, 38.27700
1625.340, 38.26800
1627.268, 38.52889
1629.197, 38.63842
1631.125, 38.59773
1633.054, 38.65160
1634.982, 38.78826
1636.911, 38.73106
1638.839, 38.57252
1640.768, 38.35720
1642.696, 37.97896
1644.625, 37.82441
1646.553, 38.16662
1648.481, 38.42100
1650.410, 38.17325
1652.338, 37.81278
1654.267, 37.64274
1656.195, 37.54133
1658.124, 37.48923
1660.052, 37.57659
1661.981, 37.53563
1663.909, 37.78127
1665.838, 37.69876
1667.766, 37.29316
1669.695, 37.49906
1671.623, 37.37711
1673.552, 37.94949
1675.480, 37.51874
1677.408, 37.77497
1679.337, 38.02863
1681.265, 37.52277
1683.194, 37.00481
1685.122, 37.05167
1687.051, 37.39353
1688.979, 37.50227
1690.908, 37.42859
1692.836, 37.44770
1694.765, 37.31966
1696.693, 37.07101
1698.622, 36.98509
1700.550, 37.01697
1702.479, 36.90355
1704.407, 36.54271
1706.335, 36.16607
1708.264, 35.89776
1710.192, 35.90619
1712.121, 36.30319
1714.049, 36.53464
1715.978, 36.53164
1717.906, 36.56152
1719.835, 36.67398
1721.763, 36.38100
1723.692, 36.58587
1725.620, 36.07389
1727.549, 36.58549
1729.477, 36.42091
1731.406, 35.99516
1733.334, 35.90876
1735.262, 36.16297
1737.191, 36.10239
1739.119, 35.79535
1741.048, 35.84476
1742.976, 35.71798
1744.905, 35.31021
1746.833, 35.03739
1748.762, 34.96090
1750.690, 35.16001
1752.619, 35.12827
1754.547, 35.04729
1756.476, 35.08871
1758.404, 35.09189
1760.333, 34.94466
1762.261, 35.16868
1764.189, 34.72925
1766.118, 34.75433
1768.046, 34.81824
1769.975, 34.75125
1771.903, 34.65918
1773.832, 34.57366
1775.760, 34.50409
1777.689, 34.22365
1779.617, 34.50475
1781.546, 34.41060
1783.474, 34.85672
1785.403, 34.51196
1787.331, 34.87383
1789.260, 34.87967
1791.188, 34.53447
1793.116, 34.28971
1795.045, 34.61654
1796.973, 34.77699
1798.902, 34.57232
1800.830, 34.47166
1802.759, 34.20638
1804.687, 33.92117
1806.616, 33.55483
1808.544, 33.48589
1810.473, 33.58678
1812.401, 33.66569
1814.330, 33.89854
1816.258, 33.78985
1818.187, 33.61461
1820.115, 33.94009
1822.043, 34.13492
1823.972, 34.30776
1825.900, 34.09285
1827.829, 33.25586
1829.757, 33.10784
1831.686, 33.47036
1833.614, 33.73701
1835.543, 33.76247
1837.471, 33.62635
1839.400, 33.50885
1841.328, 33.32341
1843.257, 33.30054
1845.185, 33.24203
1847.114, 33.39975
1849.042, 33.54966
1850.970, 32.83710
1852.899, 32.24585
1854.827, 32.52042
1856.756, 32.81327
1858.684, 32.67532
1860.613, 32.51128
1862.541, 32.46629
1864.470, 32.43955
1866.398, 32.34582
1868.327, 32.16735
1870.255, 32.43052
1872.184, 32.43303
1874.112, 32.09855
1876.041, 32.07008
1877.969, 31.78183
1879.897, 31.67484
1881.826, 31.85670
1883.754, 32.08232
1885.683, 32.05286
1887.611, 32.07620
1889.540, 31.98320
1891.468, 31.86703
1893.397, 31.67533
1895.325, 31.46503
1897.254, 31.36128
1899.182, 31.17204
1901.111, 30.77830
1903.039, 30.85621
1904.968, 31.32428
1906.896, 31.44908
1908.824, 31.26603
1910.753, 31.19503
1912.681, 31.12871
1914.610, 31.03655
1916.538, 30.79756
1918.467, 30.63600
1920.395, 31.08885
1922.324, 31.48969
1924.252, 31.29944
1926.181, 31.10637
1928.109, 31.25702
1930.038, 31.22875
1931.966, 31.11750
1933.895, 31.12795
1935.823, 31.06994
1937.751, 31.04952
1939.680, 31.04952
1941.608, 30.96382
1943.537, 31.02860
1945.465, 31.00519
1947.394, 30.95478
1949.322, 30.92532
1951.251, 30.90745
1953.179, 30.76855
1955.108, 30.55960
1957.036, 30.55912
1958.965, 30.19408
1960.893, 30.25915
1962.822, 30.31101
1964.750, 30.12661
1966.678, 30.10423
1968.607, 29.97646
1970.535, 29.90192
1972.464, 29.94599
1974.392, 29.52744
1976.321, 29.95268
1978.249, 30.09715
1980.178, 29.90691
1982.106, 29.70410
1984.035, 29.36829
1985.963, 29.01648
1987.892, 28.81483
1989.820, 28.94498
1991.749, 29.01712
1993.677, 28.75784
1995.605, 28.77280
1997.534, 28.63956
1999.462, 28.59789
2001.391, 28.97306
2003.319, 28.93963
2005.248, 28.13850
2007.176, 27.69823
2009.105, 27.92100
2011.033, 28.10064
2012.962, 28.02380
2014.890, 27.68316
2016.819, 27.30571
2018.747, 27.32026
2020.676, 27.70462
2022.604, 28.12128
2024.532, 27.86929
2026.461, 27.21721
2028.389, 27.00712
2030.318, 27.32184
2032.246, 27.67886
2034.175, 27.41439
2036.103, 27.03596
2038.032, 27.37684
2039.960, 27.47374
2041.889, 27.06467
2043.817, 26.92809
2045.746, 26.83527
2047.674, 26.73175
2049.603, 26.58121
2051.531, 26.49071
2053.459, 26.28589
2055.388, 26.22648
2057.316, 26.31681
2059.245, 26.09484
2061.173, 25.95364
2063.102, 26.01565
2065.030, 26.32281
2066.959, 26.02102
2068.887, 26.23714
2070.816, 25.68927
2072.744, 25.40614
2074.673, 25.33296
2076.601, 25.19399
2078.530, 25.18392
2080.458, 25.34378
2082.386, 25.33131
2084.315, 25.52847
2086.243, 25.74418
2088.172, 25.45959
2090.100, 25.40031
2092.029, 25.30164
2093.957, 25.00718
2095.886, 24.96401
2097.814, 24.80853
2099.743, 24.78399
2101.671, 24.74790
2103.600, 24.33539
2105.528, 24.45329
2107.457, 24.92012
2109.385, 24.86779
2111.313, 24.56171
2113.242, 24.20584
2115.170, 24.02639
2117.099, 24.09452
2119.027, 24.20458
2120.956, 24.36167
2122.884, 24.39211
2124.813, 24.44484
2126.741, 24.34406
2128.670, 24.39496
2130.598, 24.31583
2132.527, 24.35073
2134.455, 24.19364
2136.384, 24.05788
2138.312, 24.03555
2140.240, 23.59606
2142.169, 23.31623
2144.097, 23.45731
2146.026, 23.63559
2147.954, 23.39204
2149.883, 23.44949
2151.811, 23.70362
2153.740, 23.30817
2155.668, 23.17699
2157.597, 23.30582
2159.525, 23.19370
2161.454, 22.85256
2163.382, 22.53813
2165.311, 22.55934
2167.239, 22.77544
2169.167, 22.56124
2171.096, 22.35760
2173.024, 22.98251
2174.953, 23.39324
2176.881, 22.98750
2178.810, 22.66331
2180.738, 22.50834
2182.667, 22.40162
2184.595, 22.39517
2186.524, 22.61454
2188.452, 22.44827
2190.381, 22.13479
2192.309, 21.99287
2194.238, 22.23920
2196.166, 22.01597
2198.094, 21.96606
2200.023, 21.92336
2201.951, 21.66349
2203.880, 21.53955
2205.808, 21.30520
2207.737, 21.42029
2209.665, 21.20389
2211.594, 21.35863
2213.522, 21.53447
2215.451, 21.71174
2217.379, 21.74354
2219.308, 21.68975
2221.236, 21.64822
2223.165, 21.30573
2225.093, 21.38816
2227.021, 20.85320
2228.950, 21.37024
2230.878, 21.10764
2232.807, 21.07811
2234.735, 21.24851
2236.664, 21.35946
2238.592, 21.57409
2240.521, 21.63317
2242.449, 21.19442
2244.378, 20.51419
2246.306, 19.99876
2248.235, 20.45472
2250.163, 20.89272
2252.092, 20.74006
2254.020, 20.65727
2255.948, 20.75332
2257.877, 20.56718
2259.805, 20.65602
2261.734, 20.35220
2263.662, 20.09340
2265.591, 19.98294
2267.519, 19.85968
2269.448, 19.77538
2271.376, 19.89147
2273.305, 19.76675
2275.233, 19.99827
2277.162, 20.15344
2279.090, 19.96161
2281.019, 19.94468
2282.947, 19.74633
2284.875, 19.48356
2286.804, 19.67765
2288.732, 19.48468
2290.661, 18.90490
2292.589, 18.35581
2294.518, 18.68850
2296.446, 19.37481
2298.375, 19.53620
2300.303, 19.32976
2302.232, 19.31768
2304.160, 19.27028
2306.089, 19.32339
2308.017, 19.33729
2309.946, 19.26175
2311.874, 18.99060
2313.802, 19.08245
2315.731, 19.00866
2317.659, 18.84685
2319.588, 18.86148
2321.516, 18.83834
2323.445, 18.84283
2325.373, 19.22955
2327.302, 19.46813
2329.230, 19.46434
2331.159, 18.80814
2333.087, 18.58894
2335.016, 18.69027
2336.944, 18.39489
2338.873, 18.29376
2340.801, 18.31933
2342.729, 18.12176
2344.658, 18.08340
2346.586, 18.02584
2348.515, 18.21860
2350.443, 17.93520
2352.372, 17.86709
2354.300, 17.86345
2356.229, 18.16285
2358.157, 18.21786
2360.086, 18.05467
2362.014, 18.09858
2363.943, 17.43962
2365.871, 17.70967
2367.800, 17.15975
2369.728, 16.60882
2371.656, 16.77777
2373.585, 17.02848
2375.513, 17.09669
2377.442, 17.24771
2379.370, 17.14796
2381.299, 17.39371
2383.227, 17.22422
2385.156, 17.16698
2387.084, 17.06276
2389.013, 17.02697
2390.941, 16.99495
2392.870, 16.82644
2394.798, 16.98662
2396.727, 16.59741
2398.655, 16.56941
2400.583, 16.66564
2402.512, 16.79336
2404.440, 16.56870
2406.369, 16.50003
2408.297, 16.66780
2410.226, 16.81322
2412.154, 16.64193
2414.083, 16.46292
2416.011, 16.30397
2417.940, 16.31609
2419.868, 16.52528
2421.797, 16.19100
2423.725, 15.97885
2425.654, 16.42087
2427.582, 16.52826
2429.510, 16.30112
2431.439, 16.07985
2433.367, 15.91574
2435.296, 16.03861
2437.224, 15.72803
2439.153, 15.73978
2441.081, 16.54609
2443.010, 16.50315
2444.938, 16.34222
2446.867, 16.68498
2448.795, 16.10096
2450.724, 15.45020
2452.652, 15.49560
2454.581, 15.24304
2456.509, 14.97336
2458.438, 14.94162
2460.366, 15.29145
2462.294, 15.78957
2464.223, 15.64645
2466.151, 15.61014
2468.080, 15.58972
2470.008, 15.50259
2471.937, 15.46951
2473.865, 15.17822
2475.794, 15.18058
2477.722, 15.08058
2479.651, 15.06013
2481.579, 14.97794
2483.508, 14.96152
2485.436, 14.92133
2487.365, 14.83773
2489.293, 14.83037
2491.221, 14.81091
2493.150, 14.39072
2495.078, 14.18703
2497.007, 14.08339
2498.935, 14.40221
2500.864, 13.92571
2502.792, 13.56854
2504.721, 13.63297
2506.649, 14.14545
2508.578, 14.12745
2510.506, 13.97222
2512.435, 14.03131
2514.363, 13.98112
2516.292, 14.12448
2518.220, 14.63660
2520.148, 14.38847
2522.077, 14.43410
2524.005, 14.27332
2525.934, 14.03730
2527.862, 14.13551
2529.791, 13.84605
2531.719, 13.76535
2533.648, 13.88756
2535.576, 13.60063
2537.505, 13.49018
2539.433, 13.61462
2541.362, 13.66437
2543.290, 13.39906
2545.219, 13.29686
2547.147, 13.54562
2549.075, 13.54817
2551.004, 13.63004
2552.932, 13.59830
2554.861, 13.67024
2556.789, 13.69121
2558.718, 13.67040
2560.646, 13.70991
2562.575, 13.47312
2564.503, 13.37965
2566.432, 13.24705
2568.360, 12.85400
2570.289, 12.47534
2572.217, 12.51419
2574.146, 12.55372
2576.074, 12.67017
2578.002, 12.72880
2579.931, 12.75006
2581.859, 12.82026
2583.788, 13.57926
2585.716, 14.36891
2587.645, 12.51754
2589.573, 11.76985
2591.502, 12.38901
2593.430, 12.54110
2595.359, 12.50796
2597.287, 12.12195
2599.216, 12.05555
2601.144, 12.03639
2603.073, 11.93781
2605.001, 12.02769
2606.929, 11.82471
2608.858, 11.62315
2610.786, 11.66674
2612.715, 11.66644
2614.643, 11.58986
2616.572, 11.83483
2618.500, 11.83870
2620.429, 11.58893
2622.357, 11.65495
2624.286, 11.51301
2626.214, 11.43503
2628.143, 11.30687
2630.071, 11.15337
2632.000, 11.01503
2633.928, 11.18018
2635.856, 11.38796
2637.785, 11.48545
2639.713, 11.14538
2641.642, 11.17558
2643.570, 11.42142
2645.499, 10.94356
2647.427, 10.85715
2649.356, 11.34485
2651.284, 11.31008
2653.213, 10.96188
2655.141, 10.68251
2657.070, 10.87053
2658.998, 10.97677
2660.927, 10.98067
2662.855, 10.81592
2664.783, 10.91490
2666.712, 11.04676
2668.640, 10.44774
2670.569, 10.52557
2672.497, 10.79796
2674.426, 10.41972
2676.354, 10.34276
2678.283, 10.69479
2680.211, 10.75970
2682.140, 10.70458
2684.068, 11.17888
2685.997, 10.64229
2687.925, 10.21048
2689.854, 10.31475
2691.782, 10.94568
2693.710, 11.20831
2695.639, 11.00020
2697.567, 10.55805
2699.496, 10.11399
2701.424, 9.739003
2703.353, 9.584062
2705.281, 9.433359
2707.210, 9.695187
2709.138, 10.19724
2711.067, 10.10079
2712.995, 9.744939
2714.924, 9.432043
2716.852, 9.507025
2718.781, 9.541460
2720.709, 9.641375
2722.637, 9.770566
2724.566, 9.789180
2726.494, 10.06517
2728.423, 9.834309
2730.351, 9.929593
2732.280, 9.877824
2734.208, 9.432577
2736.137, 9.418135
2738.065, 9.528851
2739.994, 9.566744
2741.922, 9.413471
2743.851, 9.044867
2745.779, 8.620976
2747.708, 8.733233
2749.636, 8.952237
2751.564, 8.996093
2753.493, 8.647848
2755.421, 8.626315
2757.350, 8.884460
2759.278, 8.853414
2761.207, 9.195728
2763.135, 9.534040
2765.064, 8.898236
2766.992, 8.981211
2768.921, 9.075644
2770.849, 8.832544
2772.778, 8.874777
2774.706, 8.795552
2776.635, 8.633927
2778.563, 8.796241
2780.491, 8.695562
2782.420, 8.265645
2784.348, 7.694156
2786.277, 8.228100
2788.205, 7.836303
2790.134, 8.611098
2792.062, 8.026324
2793.991, 7.746030
2795.919, 8.255629
2797.848, 8.693441
2799.776, 8.721522
2801.705, 8.830840
2803.633, 8.803553
2805.562, 8.468145
2807.490, 8.554566
2809.418, 8.074647
2811.347, 7.991405
2813.275, 8.236471
2815.204, 8.646963
2817.132, 8.205821
2819.061, 7.794868
2820.989, 8.097815
2822.918, 8.063444
2824.846, 8.150405
2826.775, 8.390259
2828.703, 7.945526
2830.632, 7.571565
2832.560, 7.428477
2834.489, 7.381052
2836.417, 7.340308
2838.345, 7.454148
2840.274, 7.493048
2842.202, 7.585927
2844.131, 7.627876
2846.059, 7.243136
2847.988, 6.940518
2849.916, 6.935272
2851.845, 7.150740
2853.773, 7.033671
2855.702, 7.437379
2857.630, 8.004702
2859.559, 7.953914
2861.487, 7.526805
2863.416, 7.103664
2865.344, 6.950579
2867.272, 7.165008
2869.201, 6.925612
2871.129, 7.071270
2873.058, 6.551383
2874.986, 7.149511
2876.915, 7.550180
2878.843, 7.390971
2880.772, 6.839505
2882.700, 6.671874
2884.629, 7.064366
2886.557, 6.808196
2888.486, 6.677202
2890.414, 6.713397
2892.343, 6.772299
2894.271, 6.791467
2896.199, 6.745758
2898.128, 6.633369
2900.056, 6.929189
2901.985, 6.722516
2903.913, 6.834332
2905.842, 6.664784
2907.770, 6.825588
2909.699, 6.699704
2911.627, 6.497186
2913.556, 6.391730
2915.484, 6.343236
2917.413, 6.328466
2919.341, 6.011399
2921.270, 5.729156
2923.198, 5.725965
2925.126, 6.053133
2927.055, 6.760055
2928.983, 6.914294
2930.912, 6.369317
2932.840, 6.067474
2934.769, 5.988192
2936.697, 6.017144
2938.625, 5.758786
2940.554, 6.067667
2942.482, 6.111264
2944.411, 5.461257
2946.339, 5.618504
2948.268, 5.917390
2950.196, 6.197256
2952.125, 6.839770
2954.053, 6.550511
2955.982, 6.248540
2957.910, 6.411591
2959.839, 5.470927
2961.767, 5.190612
2963.696, 5.306369
2965.624, 4.913509
2967.552, 5.136231
2969.481, 5.489781
2971.409, 6.097247
2973.338, 5.775564
2975.266, 6.810345
2977.195, 5.470189
2979.123, 5.449244
2981.052, 5.818128
2982.980, 5.835075
2984.909, 5.496118
2986.837, 5.540236
2988.766, 5.448647
2990.694, 5.343374
2992.623, 5.338303
2994.551, 5.315969
2996.479, 5.403523
2998.408, 5.548709
3000.336, 5.251147
3002.265, 5.223636
3004.193, 5.441630
3006.122, 5.726604
3008.050, 5.446208
3009.979, 5.111330
3011.907, 4.934158
3013.836, 5.420588
3015.764, 5.215323
3017.693, 5.021381
3019.621, 5.271621
3021.550, 5.163069
3023.478, 5.589272
3025.406, 5.914700
3027.335, 5.363807
3029.263, 4.804527
3031.192, 4.643103
3033.120, 4.753128
3035.049, 4.376131
3036.977, 4.799200
3038.906, 4.977854
3040.834, 4.444396
3042.763, 4.933358
3044.691, 5.003145
3046.620, 4.723961
3048.548, 4.602710
3050.477, 5.131095
3052.405, 5.042981
3054.333, 4.427367
3056.262, 4.305646
3058.190, 4.850500
3060.119, 4.884554
3062.047, 4.225780
3063.976, 4.906127
3065.904, 4.838062
3067.833, 4.423919
3069.761, 4.502136
3071.690, 4.817654
3073.618, 4.697042
3075.547, 4.435669
3077.475, 4.954265
3079.404, 4.997249
3081.332, 4.747824
3083.260, 4.407382
3085.189, 4.471975
3087.117, 4.335771
3089.046, 4.738597
3090.974, 4.486972
3092.903, 4.544154
3094.831, 4.908205
3096.760, 4.687251
3098.688, 4.756166
3100.617, 4.633294
3102.545, 4.775632
3104.474, 4.818342
3106.402, 4.816288
3108.331, 4.887917
3110.259, 4.630289
3112.188, 4.962546
3114.116, 4.363003
3116.044, 4.398106
3117.973, 4.547991
3119.901, 4.651920
3121.830, 4.413658
3123.758, 4.419075
3125.687, 4.609191
3127.615, 4.934681
3129.544, 3.849782
3131.472, 3.727185
3133.401, 4.066365
3135.329, 4.176989
3137.258, 4.610873
3139.186, 4.619966
3141.115, 4.037028
3143.043, 3.263607
3144.971, 3.789809
3146.900, 4.143931
3148.828, 4.322938
3150.757, 4.760959
3152.685, 4.292070
3154.614, 4.606111
3156.542, 5.053859
3158.471, 4.116754
3160.399, 3.982965
3162.328, 4.140242
3164.256, 4.446637
3166.185, 4.791638
3168.113, 4.751719
3170.042, 4.384336
3171.970, 4.070532
3173.898, 4.030958
3175.827, 3.760831
3177.755, 3.756777
3179.684, 3.941653
3181.612, 4.053844
3183.541, 4.031667
3185.469, 4.552033
3187.398, 3.988805
3189.326, 4.418506
3191.255, 4.395282
3193.183, 4.135499
3195.112, 3.922999
3197.040, 3.839493
3198.969, 3.561207
3200.897, 3.745979
3202.825, 3.900417
3204.754, 3.022077
3206.682, 4.360120
3208.611, 4.458257
3210.539, 3.672702
3212.468, 4.286757
3214.396, 3.994900
3216.325, 3.528676
3218.253, 3.188287
3220.182, 3.202603
3222.110, 4.396312
3224.039, 4.001799
3225.967, 3.828018
3227.896, 4.604350
3229.824, 4.172932
3231.752, 4.164223
3233.681, 4.456615
3235.609, 4.391806
3237.538, 3.445954
3239.466, 3.303359
3241.395, 3.640535
3243.323, 3.937028
3245.252, 3.410812
3247.180, 3.191724
3249.109, 4.990962
3251.037, 5.290334
3252.966, 4.106677
3254.894, 3.769924
3256.823, 3.546180
3258.751, 4.648077
3260.679, 3.836374
3262.608, 4.111396
3264.536, 3.367744
3266.465, 3.886661
3268.393, 4.255614
3270.322, 4.568878
3272.250, 4.788787
3274.179, 4.833892
3276.107, 4.746653
3278.036, 4.672075
3279.964, 3.984806
3281.893, 3.682562
3283.821, 4.313159
3285.750, 3.887878
3287.678, 4.542569
3289.606, 5.123534
3291.535, 4.964547
3293.463, 5.283915
3295.392, 5.297790
3297.320, 4.940786
3299.249, 5.398411
3301.177, 4.583690
3303.106, 4.928677
3305.034, 4.771415
3306.963, 4.337020
3308.891, 4.241044
3310.820, 4.871238
3312.748, 5.024636
3314.677, 5.271449
3316.605, 5.798458
3318.533, 5.156816
3320.462, 4.243857
3322.390, 4.281297
3324.319, 4.761205
3326.247, 3.942005
3328.176, 4.086598
3330.104, 4.152299
3332.033, 4.216615
3333.961, 4.524806
3335.890, 4.746566
3337.818, 5.026598
3339.747, 4.668584
3341.675, 4.058321
3343.604, 5.163239
3345.532, 5.043134
3347.460, 4.371024
3349.389, 4.107686
3351.317, 4.978888
3353.246, 5.513013
3355.174, 5.292091
3357.103, 4.958649
3359.031, 4.794456
3360.960, 4.503210
3362.888, 4.603538
3364.817, 4.567833
3366.745, 4.842744
3368.674, 4.820500
3370.602, 4.825042
3372.531, 5.059630
3374.459, 5.308961
3376.387, 5.184192
3378.316, 4.160572
3380.244, 3.728084
3382.173, 4.786514
3384.101, 6.113591
3386.030, 6.343663
3387.958, 5.674190
3389.887, 6.142510
3391.815, 5.635692
3393.744, 4.462325
3395.672, 4.659671
3397.601, 4.523202
3399.529, 5.710454
3401.458, 5.450510
3403.386, 5.720312
3405.314, 5.809591
3407.243, 5.847888
3409.171, 6.349766
3411.100, 6.469727
3413.028, 6.105930
3414.957, 6.382850
3416.885, 6.312700
3418.814, 6.476823
3420.742, 6.266082
3422.671, 6.538135
3424.599, 6.250772
3426.528, 6.528792
3428.456, 6.358292
3430.385, 5.521970
3432.313, 5.344746
3434.241, 5.158516
3436.170, 5.338245
3438.098, 5.239465
3440.027, 4.858396
3441.955, 5.767505
3443.884, 4.923964
3445.812, 4.572341
3447.741, 4.302602
3449.669, 3.093781
3451.598, 4.027279
3453.526, 2.983134
3455.455, 2.907122
3457.383, 3.735044
3459.312, 3.948361
3461.240, 4.741343
3463.168, 4.062123
3465.097, 3.361036
3467.025, 3.149791
3468.954, 2.923289
3470.882, 3.066100
3472.811, 2.712545
3474.739, 2.930830
3476.668, 3.550061
3478.596, 3.114539
3480.525, 2.265552
3482.453, 3.006755
3484.382, 2.934915
3486.310, 2.102771
3488.239, 3.310593
3490.167, 2.437091
3492.095, 2.416356
3494.024, 2.802127
3495.952, 3.140447
3497.881, 3.611613
3499.809, 3.496841
3501.738, 2.567242
3503.666, 1.830800
3505.595, 2.067841
3507.523, 3.385288
3509.452, 3.050000
3511.380, 3.140119
3513.309, 3.245286
3515.237, 2.959836
3517.166, 3.142845
3519.094, 3.105043
3521.022, 3.015888
3522.951, 3.079270
3524.879, 2.516378
3526.808, 2.240572
3528.736, 1.837852
3530.665, 2.725961
3532.593, 3.373177
3534.522, 3.133891
3536.450, 2.329645
3538.379, 2.505381
3540.307, 2.653070
3542.236, 3.117272
3544.164, 3.098494
3546.093, 2.419654
3548.021, 2.746402
3549.949, 2.430751
3551.878, 2.583880
3553.806, 2.359749
3555.735, 2.184649
3557.663, 2.505695
3559.592, 2.765540
3561.520, 3.007497
3563.449, 3.945354
3565.377, 4.116489
3567.306, 4.449047
3569.234, 4.355453
3571.163, 4.658575
3573.091, 4.793613
3575.020, 4.466730
3576.948, 3.436621
3578.876, 2.657434
3580.805, 3.035082
3582.733, 3.452666
3584.662, 3.188984
3586.590, 3.397208
3588.519, 2.827469
3590.447, 3.312377
3592.376, 3.019870
3594.304, 3.020318
3596.233, 3.266587
3598.161, 3.244877
3600.090, 2.876742
3602.018, 1.996328
3603.947, 1.606013
3605.875, 1.835457
3607.803, 1.505087
3609.732, 1.632840
3611.660, 1.826200
3613.589, 1.853229
3615.517, 2.398307
3617.446, 2.527219
3619.374, 2.162143
3621.303, 2.228945
3623.231, 1.118109
3625.160, 1.972296
3627.088, 2.297251
3629.017, 2.320017
3630.945, 3.342135
3632.874, 2.568860
3634.802, 2.465611
3636.730, 2.748422
3638.659, 2.783258
3640.587, 2.452424
3642.516, 2.135713
3644.444, 2.707922
3646.373, 1.985128
3648.301, 2.128467
3650.230, 2.555134
3652.158, 2.362421
3654.087, 1.749642
3656.015, 1.712283
3657.944, 2.322828
3659.872, 2.985642
3661.801, 3.195179
3663.729, 3.016936
3665.657, 3.015056
3667.586, 2.779846
3669.514, 1.948842
3671.443, 1.719439
3673.371, 1.753977
3675.300, 1.654834
3677.228, 2.054221
3679.157, 2.215666
3681.085, 1.958235
3683.014, 1.631655
3684.942, 1.558555
3686.871, 1.933404
3688.799, 1.846568
3690.728, 2.241211
3692.656, 1.986265
3694.584, 1.959099
3696.513, 1.619712
3698.441, 1.548160
3700.370, 1.496101
3702.298, 1.407066
3704.227, 1.679848
3706.155, 1.840171
3708.084, 2.131296
3710.012, 2.116269
3711.941, 2.363159
3713.869, 1.666595
3715.798, 2.528664
3717.726, 1.918477
3719.655, 1.554741
3721.583, 1.749513
3723.511, 1.960642
3725.440, 1.945410
3727.368, 2.120461
3729.297, 2.142885
3731.225, 2.147678
3733.154, 2.012827
3735.082, 1.670809
3737.011, 1.740033
3738.939, 1.337770
3740.868, 1.701123
3742.796, 1.882493
3744.725, 1.917979
3746.653, 1.796859
3748.582, 1.606706
3750.510, 1.605978
3752.438, 1.320755
3754.367, 1.655284
3756.295, 1.845013
3758.224, 1.860760
3760.152, 1.838161
3762.081, 1.259851
3764.009, 1.760480
3765.938, 1.343535
3767.866, 2.033574
3769.795, 2.354287
3771.723, 1.771110
3773.652, 1.360894
3775.580, 1.329476
3777.509, 1.731124
3779.437, 2.133712
3781.365, 1.529871
3783.294, 1.107650
3785.222, 1.650917
3787.151, 2.389787
3789.079, 2.250192
3791.008, 1.948785
3792.936, 2.028126
3794.865, 2.299585
3796.793, 2.054699
3798.722, 1.597975
3800.650, 2.113735
3802.579, 2.619416
3804.507, 1.705716
3806.436, 1.748237
3808.364, 1.746704
3810.292, 1.237889
3812.221, 0.9846854
3814.149, 1.880340
3816.078, 2.711168
3818.006, 1.935715
3819.935, 0.9063416
3821.863, 1.071281
3823.792, 1.180228
3825.720, 0.9157636
3827.649, 1.424114
3829.577, 2.331089
3831.506, 1.187877
3833.434, 1.901513
3835.363, 1.953591
3837.291, 1.617106
3839.219, 1.900469
3841.148, 2.443127
3843.076, 1.565991
3845.005, 1.310271
3846.933, 1.460856
3848.862, 2.359761
3850.790, 2.686846
3852.719, 2.456041
3854.647, 2.058899
3856.576, 2.342065
3858.504, 1.543539
3860.433, 2.312130
3862.361, 2.649049
3864.290, 2.158625
3866.218, 1.657535
3868.146, 2.130017
3870.075, 2.713863
3872.003, 0.7848553
3873.932, 2.172755
3875.860, 1.300248
3877.789, 0.9062411
3879.717, 1.278320
3881.646, 1.753183
3883.574, 1.764812
3885.503, 1.449980
3887.431, 1.943618
3889.360, 0.3951553
3891.288, 2.336714
3893.217, 1.845326
3895.145, 0.9423057
3897.073, 1.423762
3899.002, 2.087542
3900.930, 1.482351
3902.859, 1.432993
3904.787, 1.695565
3906.716, 1.877183
3908.644, 2.023257
3910.573, 2.106486
3912.501, 1.978302
3914.430, 2.057191
3916.358, 1.621849
3918.287, 1.321101
3920.215, 1.218889
3922.144, 2.262661
3924.072, 1.558681
3926.000, 2.062337
3927.929, 2.902100
3929.857, 3.032857
3931.786, 2.449052
3933.714, 1.587230
3935.643, 1.355496
3937.571, 2.042494
3939.500, 1.820552
3941.428, 1.628689
3943.357, 1.357988
3945.285, 1.344727
3947.214, 1.539366
3949.142, 1.766918
3951.071, 1.601100
3952.999, 1.693875
3954.927, 1.660744
3956.856, 1.720753
3958.784, 1.768189
3960.713, 1.931878
3962.641, 1.550736
3964.570, 1.659306
3966.498, 1.952155
3968.427, 1.507992
3970.355, 1.745785
3972.284, 1.579152
3974.212, 0.8248621
3976.141, 1.025481
3978.069, 1.215077
3979.998, 0.8244506
3981.926, 1.492916
3983.854, 1.340700
3985.783, 0.8698739
3987.711, 0.3352647
3989.640, -0.1582682
3991.568, -0.2535794
3993.497, -0.2674128
3995.425, 5.7869092E-02
3997.354, 0.2440400
3999.282, 1.282274
4001.211, 1.812740
4003.139, 0.7725016
4005.068, 0.2980314
4006.996, 0.9467933
4008.925, 0.8555691
4010.853, 0.9943636
4012.781, -0.4637277
4014.710, -1.669769
4016.638, 9.9605501E-02
4018.567, 1.178717
4020.495, 0.7290593
4022.424, 0.4356480
4024.352, 0.2914771
4026.281, -1.1020740E-02
4028.209, 0.8891600
4030.138, 0.5809469
4032.066, 1.097171
4033.995, 1.028662
4035.923, 1.057494
4037.852, 0.1715694
4039.780, -0.5326238
4041.708, -0.4081426
4043.637, -0.1381461
4045.565, -0.1382884
4047.494, -9.2736766E-02
4049.422, -0.1140204
4051.351, -0.3085552
4053.279, -0.2575963
4055.208, -0.6734871
4057.136, -0.6637857
4059.065, -0.6332910
4060.993, -0.1591830
4062.922, -0.2531054
4064.850, 4.5124602E-02
4066.779, 0.6864051
4068.707, 0.1463583
4070.635, -4.0702902E-02
4072.564, -0.2241445
4074.492, 0.7601968
4076.421, 0.5283294
4078.349, 0.6869572
4080.278, 0.5048062
4082.206, 0.3353019
4084.135, 0.4460790
4086.063, 0.1861172
4087.992, 0.2760625
4089.920, 0.8116966
4091.849, 0.9637822
4093.777, 0.3314340
4095.706, 3.8660329E-02
4097.634, 1.507945
4099.563, 0.8014000
4101.491, 0.5203885
4103.419, 3.1682760E-02
4105.348, -0.6692833
4107.276, -2.1016089E-02
4109.205, 0.3979322
4111.133, 1.306794
4113.062, 0.3068210
4114.990, 0.8703228
4116.918, -0.6667766
4118.847, -0.4278879
4120.775, -0.4544030
4122.704, -0.3015175
4124.632, 0.1869313
4126.561, 0.4300982
4128.489, 0.1187208
4130.418, -4.6620350E-02
4132.346, 0.6829121
4134.275, 7.7815428E-02
4136.203, 1.010325
4138.132, 0.8155948
4140.060, 0.8473055
4141.989, 0.8276908
4143.917, 0.7960672
4145.846, 0.6983845
4147.774, 0.7237252
4149.703, 0.4559527
4151.631, 0.2391804
4153.560, 0.1444010
4155.488, 0.7315430
4157.417, 0.9617742
4159.345, 0.3140777
4161.273, -0.3053648
4163.202, 1.9864349E-03
4165.130, 0.7733054
4167.059, 0.6564006
4168.987, 0.9165865
4170.916, 1.210125
4172.844, 0.7881246
4174.772, -3.6504529E-02
4176.701, -0.4039029
4178.629, -0.1903768
4180.558, 4.3523060E-03
4182.486, 0.1421466
4184.415, 0.6495028
4186.343, 1.5982149E-02
4188.272, 1.408152
4190.200, 0.9897364
4192.129, -0.7027751
4194.057, 6.5658530E-03
4195.986, 9.0670504E-02
4197.914, -0.6810912
4199.843, 0.1257727
4201.771, 0.3529010
4203.700, 0.4285018
4205.628, 0.4069101
4207.557, -1.1875510E-02
4209.485, 0.4535446
4211.414, 0.6637088
4213.342, -4.4108760E-02
4215.271, -0.3014236
4217.199, -0.5697538
4219.127, 0.6508390
4221.056, -0.8037175
4222.984, 3.2911770E-02
4224.913, 0.4187881
4226.841, -1.5182270E-02
4228.770, 0.2934569
4230.698, 0.2783305
4232.626, 0.8720282
4234.555, 0.3885653
4236.483, 0.1773666
4238.412, 0.9143964
4240.340, -0.1303223
4242.269, -1.012069
4244.197, -0.1025779
4246.126, 0.6446344
4248.054, -0.1720475
4249.983, 0.9171521
4251.911, -7.4362978E-02
4253.840, 0.1178724
4255.768, -0.5915446
4257.697, 8.9182062E-03
4259.625, 0.4658778
4261.554, 0.3911414
4263.482, -6.1076012E-02
4265.411, 0.8501127
4267.339, 1.040830
4269.268, 0.5261527
4271.196, -0.1037486
4273.125, 0.4990065
4275.053, 1.554829
4276.981, 0.1834607
4278.910, 0.1326228
4280.838, 1.871479
4282.767, 1.6376080E-02
4284.695, -4.4882469E-02
4286.624, 0.2573994
4288.552, 1.076476
4290.480, 6.3299360E-03
4292.409, 1.464614
4294.337, 1.142460
4296.266, 0.3083920
4298.194, 8.2237147E-02
4300.123, -0.1115741
4302.051, -0.3099294
4303.980, -0.2728496
4305.908, -0.1700545
4307.837, -0.2797564
4309.765, 0.4909395
4311.694, 0.8412060
4313.622, 0.4882724
4315.551, 0.6221653
4317.479, -0.1927732
4319.408, 0.1380251
4321.336, -0.5737606
4323.265, 0.4373564
4325.193, 0.3117965
4327.122, 0.3630476
4329.050, 0.6205155
4330.979, 0.2141873
4332.907, -0.1595477
4334.835, 2.0523241E-02
4336.764, -0.1589702
4338.692, -0.2980998
4340.621, -6.9305189E-02
4342.549, -0.2163079
4344.478, -0.2577938
4346.406, 0.5136675
4348.334, 1.028079
4350.263, 0.9323023
4352.191, 0.5176367
4354.120, 1.264256
4356.048, -0.6228543
4357.977, -0.8408276
4359.905, 0.2201182
4361.834, 0.4207220
4363.762, 1.088549
4365.691, 1.129472
4367.619, 3.3182181E-02
4369.548, 1.1212860E-02
4371.476, 0.1001153
4373.405, -0.1027517
4375.333, 0.7243511
4377.262, 0.3782107
4379.190, 0.5664518
4381.119, 0.2025262
##END=



